#Parameters = {A_R=0.4; A_i=0; A_j=-65; A_k=0; B10_i=24; B10_j=19; B10_k=0.15; B1_i=24; B1_j=24; B1_k=6; B2_i=20; B2_j=14; B2_k=3.9; B3_i=26.8; B3_j=3; B3_k=4.3; B4_i=21; B4_j=8; B5_i=7.9; B5_j=9; B5_k=3; B6_i=7.2; B6_j=6.5; B6_k=2.1; B7_i=6; B7_j=6; B7_k=3; B8_i=18; B8_j=13; B8_k=2.8; B9_i=25; B9_j=24; B9_k=0.8; PV10_i=-12; PV10_j=-7; PV10_k=1.2; PV1_i=-12; PV1_j=-12; PV1_k=2.5; PV2_i=-10; PV2_j=-30.5; PV2_k=2.5; PV3_i=-13.5; PV3_j=37.5; PV3_k=0.7; PV4_i=-10; PV4_j=-45; PV4_k=1.5; PV5_i=7; PV5_j=17.5; PV5_k=3.3; PV6_i=-11.6; PV6_j=17.8; PV6_k=3.1; PV7_i=6; PV7_j=28; PV7_k=3.2; PV8_i=-9; PV8_j=22; PV8_k=-1.7; PV9_i=-12.5; PV9_j=13.5; PV9_k=2.4; PVA_i=-13.2; PVA_j=37; PVA_k=0; b4_k=6}
#"Frequency / MHz"	"S1,1 [Magnitude]"
#------------------------------------
500.00000000000	0.19911744347982
502.50000000000	0.18770122771284
505.00000000000	0.17592901944863
507.50000000000	0.16383314222200
510.00000000000	0.15144786638568
512.50000000000	0.13880247774814
515.00000000000	0.12593304902635
517.50000000000	0.11287132860416
520.00000000000	0.099651086184914
522.50000000000	0.086307071936735
525.00000000000	0.072872345936539
527.50000000000	0.059380084499929
530.00000000000	0.045865236173967
532.50000000000	0.032361125777723
535.00000000000	0.018900694265306
537.50000000000	0.0055173137135267
540.00000000000	-0.0077555502086792
542.50000000000	-0.020887584854486
545.00000000000	-0.033844815072127
547.50000000000	-0.046599022858126
550.00000000000	-0.059117997757734
552.50000000000	-0.071372879367448
555.00000000000	-0.083334055637228
557.50000000000	-0.094976352290791
560.00000000000	-0.10627083842971
562.50000000000	-0.11719386577752
565.00000000000	-0.12771969938613
567.50000000000	-0.13782652159919
570.00000000000	-0.14749199139165
572.50000000000	-0.15669690839739
575.00000000000	-0.16542229821988
577.50000000000	-0.17365060249185
580.00000000000	-0.18136665950096
582.50000000000	-0.18855497816029
585.00000000000	-0.19520500407740
587.50000000000	-0.20130517162474
590.00000000000	-0.20684628216787
592.50000000000	-0.21182161290376
595.00000000000	-0.21622420702430
597.50000000000	-0.22005199780297
600.00000000000	-0.22330101945512
602.50000000000	-0.22597211226036
605.00000000000	-0.22806568745845
607.50000000000	-0.22958500879126
610.00000000000	-0.23053378143002
612.50000000000	-0.23092021155080
615.00000000000	-0.23074869427321
617.50000000000	-0.23003163513611
620.00000000000	-0.22877825160841
622.50000000000	-0.22700171146934
625.00000000000	-0.22471330479160
627.50000000000	-0.22192896226800
630.00000000000	-0.21866482261852
632.50000000000	-0.21493763359896
635.00000000000	-0.21076616791824
637.50000000000	-0.20616800969824
640.00000000000	-0.20116387755293
642.50000000000	-0.19577649372010
645.00000000000	-0.19002507198813
647.50000000000	-0.18393343376581
650.00000000000	-0.17752408818231
652.50000000000	-0.17081983323725
655.00000000000	-0.16384508157105
657.50000000000	-0.15662391697486
660.00000000000	-0.14918129033995
662.50000000000	-0.14154123005442
665.00000000000	-0.13372802920571
667.50000000000	-0.12576842868980
670.00000000000	-0.11768507278842
672.50000000000	-0.10950437794827
675.00000000000	-0.10125004009686
677.50000000000	-0.092946771204337
680.00000000000	-0.084618655085649
682.50000000000	-0.076289344629616
685.00000000000	-0.067981985632130
687.50000000000	-0.059720797190523
690.00000000000	-0.051526602568766
692.50000000000	-0.043421801069912
695.00000000000	-0.035428562446885
697.50000000000	-0.027569100394359
700.00000000000	-0.019859730169219
702.50000000000	-0.012322649148126
705.00000000000	-0.0049762711807252
707.50000000000	0.0021613169577253
710.00000000000	0.0090733032057723
712.50000000000	0.015741584427854
715.00000000000	0.022151964094031
717.50000000000	0.028288050034862
720.00000000000	0.034137305518706
722.50000000000	0.039684776036520
725.00000000000	0.044918182875879
727.50000000000	0.049826439877745
730.00000000000	0.054397302690269
732.50000000000	0.058622362097385
735.00000000000	0.062491104377742
737.50000000000	0.065996253455372
740.00000000000	0.069129929783520
742.50000000000	0.071883657170301
745.00000000000	0.074255280517478
747.50000000000	0.076237212737204
750.00000000000	0.077827128200386
752.50000000000	0.079019108712511
755.00000000000	0.079813305360631
757.50000000000	0.080207456104121
760.00000000000	0.080199742995393
762.50000000000	0.079791214434049
765.00000000000	0.078982485837280
767.50000000000	0.077774328177893
770.00000000000	0.076170007970074
772.50000000000	0.074172786630040
775.00000000000	0.071785420086148
777.50000000000	0.069012122983520
780.00000000000	0.065859882395521
782.50000000000	0.062333713865750
785.00000000000	0.058440908321443
787.50000000000	0.054185566288533
790.00000000000	0.049579857408922
792.50000000000	0.044628958872407
795.00000000000	0.039343929379303
797.50000000000	0.033734150319966
800.00000000000	0.027808219766664
802.50000000000	0.021578539567498
805.00000000000	0.015055065872956
807.50000000000	0.0082501037254663
810.00000000000	0.0011760939285071
812.50000000000	-0.0061546877856225
815.00000000000	-0.013730471171821
817.50000000000	-0.021535969794806
820.00000000000	-0.029559984554094
822.50000000000	-0.037786309364326
825.00000000000	-0.046203054495449
827.50000000000	-0.054792691802289
830.00000000000	-0.063543314080380
832.50000000000	-0.072440530081580
835.00000000000	-0.081466575203186
837.50000000000	-0.090608230311575
840.00000000000	-0.099849846134856
842.50000000000	-0.10917669492165
845.00000000000	-0.11857350416206
847.50000000000	-0.12802498882154
850.00000000000	-0.13751673456910
852.50000000000	-0.14703301437275
855.00000000000	-0.15655893624870
857.50000000000	-0.16608209663609
860.00000000000	-0.17558487302802
862.50000000000	-0.18505497168124
865.00000000000	-0.19447756970260
867.50000000000	-0.20384066398157
870.00000000000	-0.21313000307697
872.50000000000	-0.22233430810800
875.00000000000	-0.23143852895215
877.50000000000	-0.24043286408756
880.00000000000	-0.24930662285130
882.50000000000	-0.25804862365300
885.00000000000	-0.26664872967802
887.50000000000	-0.27509586065467
890.00000000000	-0.28338254294251
892.50000000000	-0.29150124183119
895.00000000000	-0.29944195984276
897.50000000000	-0.30719997075685
900.00000000000	-0.31476887159135
902.50000000000	-0.32214229188853
905.00000000000	-0.32931751734104
907.50000000000	-0.33628778791654
910.00000000000	-0.34305268598707
912.50000000000	-0.34960894185406
915.00000000000	-0.35595329354362
917.50000000000	-0.36208958787543
920.00000000000	-0.36801341637155
922.50000000000	-0.37372918418100
925.00000000000	-0.37923623906950
927.50000000000	-0.38453931890614
930.00000000000	-0.38963983837972
932.50000000000	-0.39454364269429
935.00000000000	-0.39925697313072
937.50000000000	-0.40378290927517
940.00000000000	-0.40812986294963
942.50000000000	-0.41230427537300
945.00000000000	-0.41631567231079
947.50000000000	-0.42017089675590
950.00000000000	-0.42388121997968
952.50000000000	-0.42745691005924
955.00000000000	-0.43090762536798
957.50000000000	-0.43424601854422
960.00000000000	-0.43748346583356
962.50000000000	-0.44063331373303
965.00000000000	-0.44370867338102
967.50000000000	-0.44672189857410
970.00000000000	-0.44968976837387
972.50000000000	-0.45262496588439
975.00000000000	-0.45554338106078
977.50000000000	-0.45845944975224
980.00000000000	-0.46139047732498
982.50000000000	-0.46435138423797
985.00000000000	-0.46735884180299
987.50000000000	-0.47043079655460
990.00000000000	-0.47358248457822
992.50000000000	-0.47683061601963
995.00000000000	-0.48019392388829
997.50000000000	-0.48368971612402
1000.0000000000	-0.48733395879981
1002.5000000000	-0.49114453075591
1005.0000000000	-0.49514050393259
1007.5000000000	-0.49933809874501
1010.0000000000	-0.50375631330429
1012.5000000000	-0.50840919897066
1015.0000000000	-0.51331720818518
1017.5000000000	-0.51849719932862
1020.0000000000	-0.52396591634679
1022.5000000000	-0.52973879620641
1025.0000000000	-0.53583607167814
1027.5000000000	-0.54227136483100
1030.0000000000	-0.54906274591562
1032.5000000000	-0.55622533724154
1035.0000000000	-0.56377626836932
1037.5000000000	-0.57173013858367
1040.0000000000	-0.58010292843309
1042.5000000000	-0.58890892061508
1045.0000000000	-0.59816389794853
1047.5000000000	-0.60788206853042
1050.0000000000	-0.61807705671937
1052.5000000000	-0.62876289587190
1055.0000000000	-0.63995200897716
1057.5000000000	-0.65165784017811
1060.0000000000	-0.66389278857224
1062.5000000000	-0.67666943088012
1065.0000000000	-0.68999840842068
1067.5000000000	-0.70389338791719
1070.0000000000	-0.71836257628349
1072.5000000000	-0.73341645355476
1075.0000000000	-0.74906549449199
1077.5000000000	-0.76532066261316
1080.0000000000	-0.78218739121373
1082.5000000000	-0.79967691294760
1085.0000000000	-0.81779507585535
1087.5000000000	-0.83655085270612
1090.0000000000	-0.85595059151898
1092.5000000000	-0.87600127412951
1095.0000000000	-0.89670723452540
1097.5000000000	-0.91807387072251
1100.0000000000	-0.94010702791138
1102.5000000000	-0.96281120530433
1105.0000000000	-0.98618888700182
1107.5000000000	-1.0102430036116
1110.0000000000	-1.0349766721690
1112.5000000000	-1.0603916330905
1115.0000000000	-1.0864881765998
1117.5000000000	-1.1132682578832
1120.0000000000	-1.1407312441704
1122.5000000000	-1.1688766936811
1125.0000000000	-1.1977039988686
1127.5000000000	-1.2272102749019
1130.0000000000	-1.2573926589750
1132.5000000000	-1.2882497608964
1135.0000000000	-1.3197763527957
1137.5000000000	-1.3519674430658
1140.0000000000	-1.3848188884169
1142.5000000000	-1.4183248991329
1145.0000000000	-1.4524760688419
1147.5000000000	-1.4872689768906
1150.0000000000	-1.5226935029184
1152.5000000000	-1.5587394752830
1155.0000000000	-1.5953982406483
1157.5000000000	-1.6326591943469
1160.0000000000	-1.6705128306530
1162.5000000000	-1.7089441546807
1165.0000000000	-1.7479435271716
1167.5000000000	-1.7874935092820
1170.0000000000	-1.8275827142965
1172.5000000000	-1.8681934054350
1175.0000000000	-1.9093105484153
1177.5000000000	-1.9509166706335
1180.0000000000	-1.9929924405103
1182.5000000000	-2.0355213764124
1185.0000000000	-2.0784828094860
1187.5000000000	-2.1218547970414
1190.0000000000	-2.1656172705338
1192.5000000000	-2.2097470877705
1195.0000000000	-2.2542193367424
1197.5000000000	-2.2990130880441
1200.0000000000	-2.3440992572347
1202.5000000000	-2.3894553695686
1205.0000000000	-2.4350518470576
1207.5000000000	-2.4808602212596
1210.0000000000	-2.5268535662257
1212.5000000000	-2.5730010958452
1215.0000000000	-2.6192722786979
1217.5000000000	-2.6656363483603
1220.0000000000	-2.7120606920915
1222.5000000000	-2.7585121698026
1225.0000000000	-2.8049583984940
1227.5000000000	-2.8513633863946
1230.0000000000	-2.8976898383359
1232.5000000000	-2.9439062767801
1235.0000000000	-2.9899740901180
1237.5000000000	-3.0358575413692
1240.0000000000	-3.0815171031446
1242.5000000000	-3.1269174140065
1245.0000000000	-3.1720182533083
1247.5000000000	-3.2167814302067
1250.0000000000	-3.2611697452623
1252.5000000000	-3.3051429902182
1255.0000000000	-3.3486607708571
1257.5000000000	-3.3916881163789
1260.0000000000	-3.4341822987229
1262.5000000000	-3.4761059226895
1265.0000000000	-3.5174219194656
1267.5000000000	-3.5580911341678
1270.0000000000	-3.5980772576322
1272.5000000000	-3.6373411430651
1275.0000000000	-3.6758480725075
1277.5000000000	-3.7135631690714
1280.0000000000	-3.7504507799869
1282.5000000000	-3.7864780451199
1285.0000000000	-3.8216125118391
1287.5000000000	-3.8558227869193
1290.0000000000	-3.8890809136815
1292.5000000000	-3.9213567809176
1295.0000000000	-3.9526233458085
1297.5000000000	-3.9828548554992
1300.0000000000	-4.0120318180500
1302.5000000000	-4.0401276257492
1305.0000000000	-4.0671251717073
1307.5000000000	-4.0930064004314
1310.0000000000	-4.1177551473985
1312.5000000000	-4.1413547729594
1315.0000000000	-4.1637976793629
1317.5000000000	-4.1850731575271
1320.0000000000	-4.2051707577601
1322.5000000000	-4.2240886260101
1325.0000000000	-4.2418224217025
1327.5000000000	-4.2583710977368
1330.0000000000	-4.2737346719868
1332.5000000000	-4.2879175149582
1335.0000000000	-4.3009242773873
1337.5000000000	-4.3127638307502
1340.0000000000	-4.3234434032451
1342.5000000000	-4.3329775437792
1345.0000000000	-4.3413782069462
1347.5000000000	-4.3486600680434
1350.0000000000	-4.3548389956409
1352.5000000000	-4.3599366906766
1355.0000000000	-4.3639709928975
1357.5000000000	-4.3669644412883
1360.0000000000	-4.3689400074842
1362.5000000000	-4.3699238943509
1365.0000000000	-4.3699396257827
1367.5000000000	-4.3690139710251
1370.0000000000	-4.3671747294508
1372.5000000000	-4.3644538644610
1375.0000000000	-4.3608757386717
1377.5000000000	-4.3564735991114
1380.0000000000	-4.3512774855882
1382.5000000000	-4.3453195153244
1385.0000000000	-4.3386285375669
1387.5000000000	-4.3312393793804
1390.0000000000	-4.3231820226772
1392.5000000000	-4.3144879199175
1395.0000000000	-4.3051911608907
1397.5000000000	-4.2953207309004
1400.0000000000	-4.2849115512334
1402.5000000000	-4.2739930728266
1405.0000000000	-4.2625967339874
1407.5000000000	-4.2507527458549
1410.0000000000	-4.2384920634166
1412.5000000000	-4.2258445638806
1415.0000000000	-4.2128392096931
1417.5000000000	-4.1995040367982
1420.0000000000	-4.1858665484762
1422.5000000000	-4.1719555520030
1425.0000000000	-4.1577956423182
1427.5000000000	-4.1434127829838
1430.0000000000	-4.1288337820516
1432.5000000000	-4.1140801923123
1435.0000000000	-4.0991759735395
1437.5000000000	-4.0841443564443
1440.0000000000	-4.0690042347245
1442.5000000000	-4.0537797986977
1445.0000000000	-4.0384878662616
1447.5000000000	-4.0231472014857
1450.0000000000	-4.0077789350245
1452.5000000000	-3.9923964006774
1455.0000000000	-3.9770169955308
1457.5000000000	-3.9616556027393
1460.0000000000	-3.9463285093695
1462.5000000000	-3.9310463094762
1465.0000000000	-3.9158233929964
1467.5000000000	-3.9006709261785
1470.0000000000	-3.8856009446625
1472.5000000000	-3.8706221850471
1475.0000000000	-3.8557446733374
1477.5000000000	-3.8409762366205
1480.0000000000	-3.8263267289786
1482.5000000000	-3.8118012997016
1485.0000000000	-3.7974072878226
1487.5000000000	-3.7831494760087
1490.0000000000	-3.7690337405437
1492.5000000000	-3.7550636283949
1495.0000000000	-3.7412454347759
1497.5000000000	-3.7275784989179
1500.0000000000	-3.7140672189549
1502.5000000000	-3.7007138447900
1505.0000000000	-3.6875198112940
1507.5000000000	-3.6744853737352
1510.0000000000	-3.6616124483583
1512.5000000000	-3.6488993437659
1515.0000000000	-3.6363466732105
1517.5000000000	-3.6239531445956
1520.0000000000	-3.6117167114600
1522.5000000000	-3.5996374446873
1525.0000000000	-3.5877125821234
1527.5000000000	-3.5759393068026
1530.0000000000	-3.5643153729155
1532.5000000000	-3.5528392345247
1535.0000000000	-3.5415056458764
1537.5000000000	-3.5303128508587
1540.0000000000	-3.5192567252345
1542.5000000000	-3.5083318751652
1545.0000000000	-3.4975371435675
1547.5000000000	-3.4868664791211
1550.0000000000	-3.4763171993134
1552.5000000000	-3.4658857639652
1555.0000000000	-3.4555643727945
1557.5000000000	-3.4453501966606
1560.0000000000	-3.4352408365826
1562.5000000000	-3.4252286610279
1565.0000000000	-3.4153118622974
1567.5000000000	-3.4054831407540
1570.0000000000	-3.3957401800443
1572.5000000000	-3.3860773857026
1575.0000000000	-3.3764928489210
1577.5000000000	-3.3669778701570
1580.0000000000	-3.3575307167099
1582.5000000000	-3.3481481253309
1585.0000000000	-3.3388235734242
1587.5000000000	-3.3295553463389
1590.0000000000	-3.3203389226993
1592.5000000000	-3.3111708997994
1595.0000000000	-3.3020477649527
1597.5000000000	-3.2929652457354
1600.0000000000	-3.2839212056908
1602.5000000000	-3.2749129177674
1605.0000000000	-3.2659370536826
1607.5000000000	-3.2569907339428
1610.0000000000	-3.2480736411008
1612.5000000000	-3.2391815679662
1615.0000000000	-3.2303125137484
1617.5000000000	-3.2214645000660
1620.0000000000	-3.2126389873301
1622.5000000000	-3.2038318342942
1625.0000000000	-3.1950423868699
1627.5000000000	-3.1862711782956
1630.0000000000	-3.1775148206422
1632.5000000000	-3.1687768407454
1635.0000000000	-3.1600552065718
1637.5000000000	-3.1513478870729
1640.0000000000	-3.1426587143199
1642.5000000000	-3.1339868641321
1645.0000000000	-3.1253319549803
1647.5000000000	-3.1166961946552
1650.0000000000	-3.1080797856329
1652.5000000000	-3.0994858764467
1655.0000000000	-3.0909135560087
1657.5000000000	-3.0823661908830
1660.0000000000	-3.0738444842670
1662.5000000000	-3.0653514877119
1665.0000000000	-3.0568891937577
1667.5000000000	-3.0484610755985
1670.0000000000	-3.0400659837531
1672.5000000000	-3.0317099238926
1675.0000000000	-3.0233942380602
1677.5000000000	-3.0151220872662
1680.0000000000	-3.0068984614479
1682.5000000000	-2.9987226388317
1685.0000000000	-2.9906009796176
1687.5000000000	-2.9825343882266
1690.0000000000	-2.9745282901926
1692.5000000000	-2.9665844726323
1695.0000000000	-2.9587080707888
1697.5000000000	-2.9508999632711
1700.0000000000	-2.9431669575447
1702.5000000000	-2.9355087149787
1705.0000000000	-2.9279319893274
1707.5000000000	-2.9204389831968
1710.0000000000	-2.9130329403885
1712.5000000000	-2.9057189549144
1715.0000000000	-2.8984984726569
1717.5000000000	-2.8913762174286
1720.0000000000	-2.8843543492647
1722.5000000000	-2.8774380473156
1725.0000000000	-2.8706291620926
1727.5000000000	-2.8639309449834
1730.0000000000	-2.8573464429182
1732.5000000000	-2.8508801493643
1735.0000000000	-2.8445325974155
1737.5000000000	-2.8383085416758
1740.0000000000	-2.8322091624387
1742.5000000000	-2.8262370218356
1745.0000000000	-2.8203967533890
1747.5000000000	-2.8146893421542
1750.0000000000	-2.8091157114273
1752.5000000000	-2.8036799515047
1755.0000000000	-2.7983826896452
1757.5000000000	-2.7932259732115
1760.0000000000	-2.7882113700005
1762.5000000000	-2.7833394091073
1765.0000000000	-2.7786139620287
1767.5000000000	-2.7740326257217
1770.0000000000	-2.7695989065984
1772.5000000000	-2.7653125782297
1775.0000000000	-2.7611744215740
1777.5000000000	-2.7571848312469
1780.0000000000	-2.7533436359235
1782.5000000000	-2.7496510668953
1785.0000000000	-2.7461071803088
1787.5000000000	-2.7427114916814
1790.0000000000	-2.7394643429881
1792.5000000000	-2.7363624142080
1795.0000000000	-2.7334069291553
1797.5000000000	-2.7305978162188
1800.0000000000	-2.7279315578250
1802.5000000000	-2.7254095160795
1805.0000000000	-2.7230263835766
1807.5000000000	-2.7207828466332
1810.0000000000	-2.7186765398427
1812.5000000000	-2.7167053741209
1815.0000000000	-2.7148691376607
1817.5000000000	-2.7131605509556
1820.0000000000	-2.7115829801530
1822.5000000000	-2.7101290344453
1825.0000000000	-2.7087986740847
1827.5000000000	-2.7075874429119
1830.0000000000	-2.7064931741187
1832.5000000000	-2.7055131440523
1835.0000000000	-2.7046431486387
1837.5000000000	-2.7038794910392
1840.0000000000	-2.7032181300066
1842.5000000000	-2.7026586681388
1845.0000000000	-2.7021934141652
1847.5000000000	-2.7018211458632
1850.0000000000	-2.7015366699503
1852.5000000000	-2.7013365019127
1855.0000000000	-2.7012166733728
1857.5000000000	-2.7011733162843
1860.0000000000	-2.7012014332401
1862.5000000000	-2.7012977717243
1865.0000000000	-2.7014583181737
1867.5000000000	-2.7016778294207
1870.0000000000	-2.7019530526864
1872.5000000000	-2.7022784050686
1875.0000000000	-2.7026510459808
1877.5000000000	-2.7030665917881
1880.0000000000	-2.7035191710309
1882.5000000000	-2.7040068040761
1885.0000000000	-2.7045248139368
1887.5000000000	-2.7050687559185
1890.0000000000	-2.7056337562400
1892.5000000000	-2.7062167282840
1895.0000000000	-2.7068135752345
1897.5000000000	-2.7074213629994
1900.0000000000	-2.7080331360635
1902.5000000000	-2.7086497731619
1905.0000000000	-2.7092630216178
1907.5000000000	-2.7098727100342
1910.0000000000	-2.7104736181321
1912.5000000000	-2.7110642589319
1915.0000000000	-2.7116396690155
1917.5000000000	-2.7121971832697
1920.0000000000	-2.7127339485565
1922.5000000000	-2.7132482114549
1925.0000000000	-2.7137359131459
1927.5000000000	-2.7141962473639
1930.0000000000	-2.7146244856571
1932.5000000000	-2.7150194556095
