#Parameters = {GP_thickness=0.2; c=300000000; copper_width=0.508; copperthickness=0.3; f=1900000000; feed_length=6.9342; lambda=0.15789473684211; line11_length=2.5; line13_length=2.5; line1_length=5; line2_length=2.5; line3_length=2.5; line5_length=2.5; line7_length=2.5; line9_length=2.5; meander_length=1.192; meander_width=0.508; pcb_thickness=0.8; tip_length=4.191; tip_width=0.508}
#"Frequency / MHz"	"S1,1_(line1_length=4) [Magnitude]"
#-----------------------------------------------------
500.00000000000	-0.069911692419268
504.50000000000	-0.070981495541197
509.00000000000	-0.067826047082873
513.50000000000	-0.061288461306745
518.00000000000	-0.052519610847495
522.50000000000	-0.042762153121839
527.00000000000	-0.033141701598099
531.50000000000	-0.024518636692395
536.00000000000	-0.017408271302256
540.50000000000	-0.011979228173321
545.00000000000	-0.0081114659458212
549.50000000000	-0.0055028522921504
554.00000000000	-0.0037878752824304
558.50000000000	-0.0026426927038744
563.00000000000	-0.0018601817080285
567.50000000000	-0.0013741020663058
572.00000000000	-0.0012371059811204
576.50000000000	-0.0015693813835273
581.00000000000	-0.0024748509035879
585.50000000000	-0.0039826282114541
590.00000000000	-0.0059847351516374
594.50000000000	-0.0082384465594549
599.00000000000	-0.010392463457923
603.50000000000	-0.012053882780880
608.00000000000	-0.012873142461105
612.50000000000	-0.012630413681480
617.00000000000	-0.011299436818952
621.50000000000	-0.0090672104817679
626.00000000000	-0.0063180615446820
630.50000000000	-0.0035621131084363
635.00000000000	-0.0013380208026751
639.50000000000	-0.00010549561793426
644.00000000000	-0.00014618717402101
648.50000000000	-0.0015007979348278
653.00000000000	-0.0039492394836915
657.50000000000	-0.0070487144814519
662.00000000000	-0.010211844610205
666.50000000000	-0.012821314575035
671.00000000000	-0.014355545038337
675.50000000000	-0.014496970925765
680.00000000000	-0.013202599567103
684.50000000000	-0.010714593568876
689.00000000000	-0.0075210935275118
693.50000000000	-0.0042590412761494
698.00000000000	-0.0015874272664505
702.50000000000	-5.8277453007219e-05
707.00000000000	-2.8594164448552e-07
711.50000000000	-0.0014561573044736
716.00000000000	-0.0041666775854437
720.50000000000	-0.0076200046744571
725.00000000000	-0.011148365686520
729.50000000000	-0.014061590355822
734.00000000000	-0.015783535013100
738.50000000000	-0.015974409927383
743.00000000000	-0.014598872688839
747.50000000000	-0.011939164389413
752.00000000000	-0.0085377565295827
756.50000000000	-0.0050925513556255
761.00000000000	-0.0023144929291830
765.50000000000	-0.00078939076373400
770.00000000000	-0.00085515428311585
774.50000000000	-0.0025377727709913
779.00000000000	-0.0055399613841960
783.50000000000	-0.0092997837433257
788.00000000000	-0.013097630320550
792.50000000000	-0.016200681427202
797.00000000000	-0.018006963223969
801.50000000000	-0.018174607496768
806.00000000000	-0.016691711220695
810.50000000000	-0.013879268199974
815.00000000000	-0.010332202129209
819.50000000000	-0.0068002612792124
824.00000000000	-0.0040366545485684
828.50000000000	-0.0026475613497822
833.00000000000	-0.0029726956738893
837.50000000000	-0.0050139068174418
842.00000000000	-0.0084304135115784
846.50000000000	-0.012606940431305
851.00000000000	-0.016767487943353
855.50000000000	-0.020131620835386
860.00000000000	-0.022075704827935
864.50000000000	-0.022256022130525
869.00000000000	-0.020688072645648
873.50000000000	-0.017741168615089
878.00000000000	-0.014075206940868
882.50000000000	-0.010503847917231
887.00000000000	-0.0078342579333568
891.50000000000	-0.0067072449613271
896.00000000000	-0.0074670763045464
900.50000000000	-0.010089271205516
905.00000000000	-0.014179071996375
909.50000000000	-0.019049008385131
914.00000000000	-0.023845900814466
918.50000000000	-0.027721922546439
923.00000000000	-0.030005650981223
927.50000000000	-0.030345512225769
932.00000000000	-0.028783102059530
936.50000000000	-0.025755559343472
941.00000000000	-0.022013362621466
945.50000000000	-0.018467314562879
950.00000000000	-0.016019978774059
954.50000000000	-0.015373027981672
959.00000000000	-0.016893961554965
963.50000000000	-0.020534166575920
968.00000000000	-0.025827648553817
972.50000000000	-0.031978599182277
977.00000000000	-0.038003462727933
981.50000000000	-0.042937878570258
986.00000000000	-0.046019368208303
990.50000000000	-0.046853003355761
995.00000000000	-0.045512425777082
999.50000000000	-0.042524644300552
1004.0000000000	-0.038782719916608
1008.5000000000	-0.035378452857690
1013.0000000000	-0.033380964561684
1017.5000000000	-0.033626891009985
1022.0000000000	-0.036555534104998
1026.5000000000	-0.042101480616436
1031.0000000000	-0.049694913495661
1035.5000000000	-0.058355366794684
1040.0000000000	-0.066864750686202
1044.5000000000	-0.074009960971456
1049.0000000000	-0.078817848334752
1053.5000000000	-0.080778688994518
1058.0000000000	-0.079964319593105
1062.5000000000	-0.077044927440071
1067.0000000000	-0.073179136374979
1071.5000000000	-0.069808241082000
1076.0000000000	-0.068377403563266
1080.5000000000	-0.070063109227154
1085.0000000000	-0.075519717639543
1089.5000000000	-0.084736461756117
1094.0000000000	-0.096988130216902
1098.5000000000	-0.11092848146806
1103.0000000000	-0.12480055056642
1107.5000000000	-0.13675062667794
1112.0000000000	-0.14518490536783
1116.5000000000	-0.14911697751365
1121.0000000000	-0.14841589276096
1125.5000000000	-0.14391490284468
1130.0000000000	-0.13733989218530
1134.5000000000	-0.13107131739688
1139.0000000000	-0.12777469866810
1143.5000000000	-0.12997881528656
1148.0000000000	-0.13965190022726
1152.5000000000	-0.15786559691347
1157.0000000000	-0.18454134302844
1161.5000000000	-0.21836728287590
1166.0000000000	-0.25687203574563
1170.5000000000	-0.29666456766258
1175.0000000000	-0.33384767564851
1179.5000000000	-0.36455152671052
1184.0000000000	-0.38551120808437
1188.5000000000	-0.39460000120681
1193.0000000000	-0.39118776704216
1197.5000000000	-0.37625003549851
1202.0000000000	-0.35220738523255
1206.5000000000	-0.32251868530025
1211.0000000000	-0.29114031153424
1215.5000000000	-0.26195197881049
1220.0000000000	-0.23825550141236
1224.5000000000	-0.22239610675869
1229.0000000000	-0.21555713905595
1233.5000000000	-0.21770835501504
1238.0000000000	-0.22771750751637
1242.5000000000	-0.24358374441891
1247.0000000000	-0.26277193162337
1251.5000000000	-0.28260732394258
1256.0000000000	-0.30066331731857
1260.5000000000	-0.31510958049565
1265.0000000000	-0.32493116912443
1269.5000000000	-0.33000767491055
1274.0000000000	-0.33103087844961
1278.5000000000	-0.32929331838448
1283.0000000000	-0.32639210134575
1287.5000000000	-0.32391255939872
1292.0000000000	-0.32315670415466
1296.5000000000	-0.32493894235484
1301.0000000000	-0.32949813477020
1305.5000000000	-0.33651901444591
1310.0000000000	-0.34523018170576
1314.5000000000	-0.35459231320914
1319.0000000000	-0.36350825993512
1323.5000000000	-0.37103545832111
1328.0000000000	-0.37654583832821
1332.5000000000	-0.37983270214485
1337.0000000000	-0.38111159175754
1341.5000000000	-0.38095328271756
1346.0000000000	-0.38015082336090
1350.5000000000	-0.37954996703834
1355.0000000000	-0.37989583089762
1359.5000000000	-0.38169025469860
1364.0000000000	-0.38512358958887
1368.5000000000	-0.39005734739288
1373.0000000000	-0.39607628099096
1377.5000000000	-0.40258166210807
1382.0000000000	-0.40891946388472
1386.5000000000	-0.41450715394028
1391.0000000000	-0.41894799627339
1395.5000000000	-0.42209461431355
1400.0000000000	-0.42406884439821
1404.5000000000	-0.42522007264144
1409.0000000000	-0.42605142154294
1413.5000000000	-0.42711129599842
1418.0000000000	-0.42889077439073
1422.5000000000	-0.43173015795131
1427.0000000000	-0.43576410767831
1431.5000000000	-0.44090617481233
1436.0000000000	-0.44688185248209
1440.5000000000	-0.45328376552054
1445.0000000000	-0.45966404624194
1449.5000000000	-0.46561914962313
1454.0000000000	-0.47087104819928
1458.5000000000	-0.47531286134369
1463.0000000000	-0.47903161578124
1467.5000000000	-0.48227216691612
1472.0000000000	-0.48539344291941
1476.5000000000	-0.48879478144813
1481.0000000000	-0.49283425245351
1485.5000000000	-0.49776318480729
1490.0000000000	-0.50368685998339
1494.5000000000	-0.51054703233300
1499.0000000000	-0.51814292905118
1503.5000000000	-0.52617499512394
1508.0000000000	-0.53431081159280
1512.5000000000	-0.54224805856939
1517.0000000000	-0.54977611715906
1521.5000000000	-0.55681574192384
1526.0000000000	-0.56343051312063
1530.5000000000	-0.56981362141354
1535.0000000000	-0.57624850662171
1539.5000000000	-0.58304735144024
1544.0000000000	-0.59049939058654
1548.5000000000	-0.59881336874603
1553.0000000000	-0.60808130863029
1557.5000000000	-0.61826795955911
1562.0000000000	-0.62922433000719
1566.5000000000	-0.64071737212480
1571.0000000000	-0.65248620752547
1575.5000000000	-0.66428809947210
1580.0000000000	-0.67595355078387
1584.5000000000	-0.68742026856700
1589.0000000000	-0.69874288301390
1593.5000000000	-0.71008513777485
1598.0000000000	-0.72169213998246
1602.5000000000	-0.73383910347779
1607.0000000000	-0.74678675307462
1611.5000000000	-0.76073190524990
1616.0000000000	-0.77577899693735
1620.5000000000	-0.79192063682308
1625.0000000000	-0.80904701391343
1629.5000000000	-0.82697662999491
1634.0000000000	-0.84549246099905
1638.5000000000	-0.86439057833977
1643.0000000000	-0.88352530353454
1647.5000000000	-0.90284395643170
1652.0000000000	-0.92240386275719
1656.5000000000	-0.94236503275708
1661.0000000000	-0.96297196801814
1665.5000000000	-0.98451120397310
1670.0000000000	-1.0072600115183
1674.5000000000	-1.0314546118793
1679.0000000000	-1.0572464590091
1683.5000000000	-1.0846789022795
1688.0000000000	-1.1136951463651
1692.5000000000	-1.1441579311557
1697.0000000000	-1.1758813853013
1701.5000000000	-1.2086826056528
1706.0000000000	-1.2424292920745
1710.5000000000	-1.2770795397108
1715.0000000000	-1.3127154839416
1719.5000000000	-1.3495419553706
1724.0000000000	-1.3878760337268
1728.5000000000	-1.4281099025628
1733.0000000000	-1.4706619826872
1737.5000000000	-1.5159168156566
1742.0000000000	-1.5641689723320
1746.5000000000	-1.6155769824600
1751.0000000000	-1.6701350575363
1755.5000000000	-1.7276667303039
1760.0000000000	-1.7878407461058
1764.5000000000	-1.8502099273424
1769.0000000000	-1.9142789912938
1773.5000000000	-1.9795643417779
1778.0000000000	-2.0456707094775
1782.5000000000	-2.1123531119801
1787.0000000000	-2.1795771051162
1791.5000000000	-2.2475319573056
1796.0000000000	-2.3166394773063
1800.5000000000	-2.3875389022303
1805.0000000000	-2.4610274593828
1809.5000000000	-2.5380150054825
1814.0000000000	-2.6194537316217
1818.5000000000	-2.7062792879035
1823.0000000000	-2.7993490136592
1827.5000000000	-2.8994077516765
1832.0000000000	-3.0070498000698
1836.5000000000	-3.1227152460565
1841.0000000000	-3.2466896183356
1845.5000000000	-3.3791172898477
1850.0000000000	-3.5200193503859
1854.5000000000	-3.6693324636420
1859.0000000000	-3.8269268040090
1863.5000000000	-3.9926336404589
1868.0000000000	-4.1662706333602
1872.5000000000	-4.3476495766997
1877.0000000000	-4.5365748431170
1881.5000000000	-4.7328393733765
1886.0000000000	-4.9361925515303
1890.5000000000	-5.1463148317754
1895.0000000000	-5.3627643378184
1899.5000000000	-5.5849205942907
1904.0000000000	-5.8119233554768
1908.5000000000	-6.0426059735592
1913.0000000000	-6.2754218899447
1917.5000000000	-6.5083891121075
1922.0000000000	-6.7390478479897
1926.5000000000	-6.9644407954773
1931.0000000000	-7.1811335934068
1935.5000000000	-7.3852838567405
1940.0000000000	-7.5727780993642
1944.5000000000	-7.7394097030506
1949.0000000000	-7.8811316497125
1953.5000000000	-7.9943195815957
1958.0000000000	-8.0760527455579
1962.5000000000	-8.1243372923470
1967.0000000000	-8.1382615933780
1971.5000000000	-8.1180439938772
1976.0000000000	-8.0649789901127
1980.5000000000	-7.9812803128588
1985.0000000000	-7.8698829603599
1989.5000000000	-7.7341981150493
1994.0000000000	-7.5778960173643
1998.5000000000	-7.4047129028193
2003.0000000000	-7.2182915445111
2007.5000000000	-7.0220712342627
2012.0000000000	-6.8192196665226
2016.5000000000	-6.6125742500518
2021.0000000000	-6.4046221667848
2025.5000000000	-6.1974871379556
2030.0000000000	-5.9929308114640
2034.5000000000	-5.7923599339321
2039.0000000000	-5.5968513667702
2043.5000000000	-5.4071776089994
2048.0000000000	-5.2238416889507
2052.5000000000	-5.0471255114851
2057.0000000000	-4.8771293848860
2061.5000000000	-4.7138312575792
2066.0000000000	-4.5571206872332
2070.5000000000	-4.4068531273780
2075.0000000000	-4.2628658179992
2079.5000000000	-4.1250128838727
2084.0000000000	-3.9931645416360
2088.5000000000	-3.8672123314769
2093.0000000000	-3.7470518275337
2097.5000000000	-3.6325767287197
2102.0000000000	-3.5236551747307
2106.5000000000	-3.4201173573547
2111.0000000000	-3.3217478351959
2115.5000000000	-3.2282836317650
2120.0000000000	-3.1394323176675
2124.5000000000	-3.0548644059823
2129.0000000000	-2.9742617492962
2133.5000000000	-2.8973151803147
2138.0000000000	-2.8237635332560
2142.5000000000	-2.7533959713656
2147.0000000000	-2.6860607470616
2151.5000000000	-2.6216641320270
2156.0000000000	-2.5601574785019
2160.5000000000	-2.5015130963194
2165.0000000000	-2.4457143431402
2169.5000000000	-2.3927154939473
2174.0000000000	-2.3424378400995
2178.5000000000	-2.2947602448486
2183.0000000000	-2.2495111149633
2187.5000000000	-2.2064822072374
2192.0000000000	-2.1654510839395
2196.5000000000	-2.1261984703004
2201.0000000000	-2.0885342541712
2205.5000000000	-2.0523166823462
2210.0000000000	-2.0174672635224
2214.5000000000	-1.9839663438964
2219.0000000000	-1.9518500388657
2223.5000000000	-1.9211892861930
2228.0000000000	-1.8920647953884
2232.5000000000	-1.8645374169474
2237.0000000000	-1.8386326979734
2241.5000000000	-1.8143171266187
2246.0000000000	-1.7915000706818
2250.5000000000	-1.7700345680361
2255.0000000000	-1.7497425452430
2259.5000000000	-1.7304321131332
2264.0000000000	-1.7119373001254
2268.5000000000	-1.6941354758301
2273.0000000000	-1.6769718736180
2277.5000000000	-1.6604637641585
2282.0000000000	-1.6446939394910
2286.5000000000	-1.6297960074801
2291.0000000000	-1.6159191541332
2295.5000000000	-1.6032032764757
2300.0000000000	-1.5917405597234
2304.5000000000	-1.5815592564375
2309.0000000000	-1.5726112897185
2313.5000000000	-1.5647742900454
2318.0000000000	-1.5578786534692
2322.5000000000	-1.5517297830791
2327.0000000000	-1.5461490159968
2331.5000000000	-1.5410100616749
2336.0000000000	-1.5362630447141
2340.5000000000	-1.5319505425675
2345.0000000000	-1.5282015365467
2349.5000000000	-1.5252138385736
2354.0000000000	-1.5232168561898
2358.5000000000	-1.5224327294810
2363.0000000000	-1.5230326051893
2367.5000000000	-1.5251087116098
2372.0000000000	-1.5286525618537
2376.5000000000	-1.5335590789056
2381.0000000000	-1.5396559784854
2385.5000000000	-1.5467296075386
2390.0000000000	-1.5545857653754
2394.5000000000	-1.5630900659258
2399.0000000000	-1.5722151145652
2403.5000000000	-1.5820565759464
2408.0000000000	-1.5928369357491
2412.5000000000	-1.6048825754138
2417.0000000000	-1.6185740613896
2421.5000000000	-1.6342953155861
2426.0000000000	-1.6523737579352
2430.5000000000	-1.6730351980001
2435.0000000000	-1.6963757708158
2439.5000000000	-1.7223606341972
2444.0000000000	-1.7508580023613
2448.5000000000	-1.7816913988083
2453.0000000000	-1.8147122598557
2457.5000000000	-1.8498756392382
2462.0000000000	-1.8873055848157
2466.5000000000	-1.9273421005987
2471.0000000000	-1.9705455904897
2475.5000000000	-2.0176691173478
2480.0000000000	-2.0695976730217
2484.5000000000	-2.1272657603714
2489.0000000000	-2.1915700376208
2493.5000000000	-2.2632917892372
2498.0000000000	-2.3430503522278
2502.5000000000	-2.4313071778098
2507.0000000000	-2.5284031079721
2511.5000000000	-2.6346661706068
2516.0000000000	-2.7505302217814
2520.5000000000	-2.8766844922053
2525.0000000000	-3.0142028020345
2529.5000000000	-3.1646126792047
2534.0000000000	-3.3298904082325
2538.5000000000	-3.5123402912061
2543.0000000000	-3.7143243376205
2547.5000000000	-3.9378517077085
2552.0000000000	-4.1839812721719
2556.5000000000	-4.4520478571851
2561.0000000000	-4.7386909176161
2565.5000000000	-5.0367251032291
2570.0000000000	-5.3340205085465
2574.5000000000	-5.6127326818073
2579.0000000000	-5.8495509266658
2583.5000000000	-6.0178430951046
2588.0000000000	-6.0921974943150
2592.5000000000	-6.0546811353286
2597.0000000000	-5.9003895798993
2601.5000000000	-5.6393264477723
2606.0000000000	-5.2934758159745
2610.5000000000	-4.8908156223272
2615.0000000000	-4.4593033612890
2619.5000000000	-4.0228548634788
2624.0000000000	-3.5996844280436
2628.5000000000	-3.2023059758661
2633.0000000000	-2.8383277232814
2637.5000000000	-2.5115053597407
2642.0000000000	-2.2227213009240
2646.5000000000	-1.9707972518333
2651.0000000000	-1.7531551504407
2655.5000000000	-1.5663371702368
2660.0000000000	-1.4064330000835
2664.5000000000	-1.2694251523197
2669.0000000000	-1.1514820836710
2673.5000000000	-1.0491714676777
2678.0000000000	-0.95961340617420
2682.5000000000	-0.88055230103892
2687.0000000000	-0.81034048874144
2691.5000000000	-0.74787032094846
2696.0000000000	-0.69244420075212
2700.5000000000	-0.64361721883072
2705.0000000000	-0.60105060172043
2709.5000000000	-0.56437835070186
2714.0000000000	-0.53313127656159
2718.5000000000	-0.50669191123586
2723.0000000000	-0.48431401291514
2727.5000000000	-0.46517445832823
2732.0000000000	-0.44845156383945
2736.5000000000	-0.43341165210472
2741.0000000000	-0.41948511105525
2745.5000000000	-0.40630940609379
2750.0000000000	-0.39374451081595
2754.5000000000	-0.38184105335015
2759.0000000000	-0.37079141224186
2763.5000000000	-0.36084937481305
2768.0000000000	-0.35224619036391
2772.5000000000	-0.34513126147333
2777.0000000000	-0.33952207083582
2781.5000000000	-0.33528627927952
2786.0000000000	-0.33216330648056
2790.5000000000	-0.32980275104063
2795.0000000000	-0.32783162600126
2799.5000000000	-0.32590666094437
2804.0000000000	-0.32377712624796
2808.5000000000	-0.32132734016298
2813.0000000000	-0.31857348928523
2817.5000000000	-0.31566195471346
2822.0000000000	-0.31281863830289
2826.5000000000	-0.31030457417794
2831.0000000000	-0.30835369503773
2835.5000000000	-0.30712082180613
2840.0000000000	-0.30665709275684
2844.5000000000	-0.30689551515917
2849.0000000000	-0.30766316119669
2853.5000000000	-0.30871858043378
2858.0000000000	-0.30980046896207
2862.5000000000	-0.31066957222578
2867.0000000000	-0.31116478425866
2871.5000000000	-0.31121911212199
2876.0000000000	-0.31087555822729
2880.5000000000	-0.31027233423143
2885.0000000000	-0.30961216515938
2889.5000000000	-0.30911387372570
2894.0000000000	-0.30897508235443
2898.5000000000	-0.30932462848779
2903.0000000000	-0.31020580916576
2907.5000000000	-0.31156037591709
2912.0000000000	-0.31324847116990
2916.5000000000	-0.31506951278486
2921.0000000000	-0.31681011389705
2925.5000000000	-0.31827777211142
2930.0000000000	-0.31934339310774
2934.5000000000	-0.31995562532818
2939.0000000000	-0.32015660732286
2943.5000000000	-0.32006876127637
2948.0000000000	-0.31986013433467
2952.5000000000	-0.31971349724052
2957.0000000000	-0.31978831191250
2961.5000000000	-0.32018785144869
2966.0000000000	-0.32093253938423
2970.5000000000	-0.32195843895203
2975.0000000000	-0.32312536253363
2979.5000000000	-0.32424344595670
2984.0000000000	-0.32510810114317
2988.5000000000	-0.32553069816433
2993.0000000000	-0.32538169314782
2997.5000000000	-0.32460383546781
3002.0000000000	-0.32322400810943
3006.5000000000	-0.32134758926046
3011.0000000000	-0.31913728968406
3015.5000000000	-0.31678133186790
3020.0000000000	-0.31446786096651
3024.5000000000	-0.31234894600321
3029.0000000000	-0.31052756869682
3033.5000000000	-0.30904321823633
3038.0000000000	-0.30787482020700
3042.5000000000	-0.30696261212898
3047.0000000000	-0.30622586468266
3051.5000000000	-0.30558673308601
3056.0000000000	-0.30499141616670
3060.5000000000	-0.30442652295525
3065.0000000000	-0.30392442038214
3069.5000000000	-0.30355276685427
3074.0000000000	-0.30340376267463
3078.5000000000	-0.30356775381093
