#
#"Frequency / GHz"	"S1,1_(dist=10) [Magnitude]"
#----------------------------------------------
0.0000000000000	-0.060268716248873
0.0015000000130385	-0.060252950963166
0.0030000000260770	-0.060205124034036
0.0044999998062849	-0.060125727789510
0.0060000000521541	-0.060014192082759
0.0074999998323619	-0.059871491804958
0.0089999996125698	-0.059697540092341
0.010499999858439	-0.059491709639150
0.012000000104308	-0.059255960855829
0.013500000350177	-0.058990150016753
0.014999999664724	-0.058693593484855
0.016499999910593	-0.058366634151278
0.017999999225140	-0.058011158131166
0.019500000402331	-0.057627470481064
0.020999999716878	-0.057214821531977
0.022500000894070	-0.056775043367984
0.024000000208616	-0.056307870014621
0.025499999523163	-0.055815109942210
0.027000000700355	-0.055296463049352
0.028500000014901	-0.054752665566329
0.029999999329448	-0.054184947749302
0.031500000506639	-0.053594016750383
0.032999999821186	-0.052980049471410
0.034499999135733	-0.052344760336019
0.035999998450279	-0.051689332301074
0.037500001490116	-0.051014413327710
0.039000000804663	-0.050319619455963
0.040500000119209	-0.049607155494842
0.041999999433756	-0.048878665204623
0.043499998748302	-0.048133224716534
0.045000001788139	-0.047373523629669
0.046500001102686	-0.046599634437845
0.048000000417233	-0.045813203786712
0.049499999731779	-0.045015336486383
0.050999999046326	-0.044208698674291
0.052499998360872	-0.043390773284819
0.054000001400709	-0.042564740614775
0.055500000715256	-0.041733237237930
0.057000000029802	-0.040894779354899
0.058499999344349	-0.040050993365283
0.059999998658895	-0.039206069581434
0.061500001698732	-0.038357507640857
0.063000001013279	-0.037507945637177
0.064499996602535	-0.036659017248836
0.065999999642372	-0.035811322072173
0.067500002682209	-0.034966448887832
0.068999998271465	-0.034124549884627
0.070500001311302	-0.033287721095529
0.071999996900558	-0.032457713993139
0.073499999940395	-0.031635077168964
0.075000002980232	-0.030819881168057
0.076499998569489	-0.030015460305141
0.078000001609325	-0.029220883592243
0.079499997198582	-0.028438849509115
0.081000000238419	-0.027670607462974
0.082500003278255	-0.026914186240918
0.083999998867512	-0.026174491687998
0.085500001907349	-0.025451183961086
0.086999997496605	-0.024743952746943
0.088500000536442	-0.024056622255058
0.090000003576279	-0.023386927296475
0.091499999165535	-0.022738653033549
0.093000002205372	-0.022110570326454
0.094499997794628	-0.021504514687967
0.096000000834465	-0.020921792808175
0.097499996423721	-0.020362783153749
0.098999999463558	-0.019828329845089
0.10050000250340	-0.019319285555862
0.10199999809265	-0.018836568207325
0.10350000113249	-0.018379532351782
0.10499999672174	-0.017951677035290
0.10649999976158	-0.017551426557738
0.10800000280142	-0.017179183382540
0.10949999839067	-0.016836429172906
0.11100000143051	-0.016523175208501
0.11249999701977	-0.016240361719974
0.11400000005960	-0.015988625018414
0.11550000309944	-0.015768556849235
0.11699999868870	-0.015579030901090
0.11850000172853	-0.015421537280224
0.11999999731779	-0.015295469779342
0.12150000035763	-0.015202785125304
0.12300000339746	-0.015141009079452
0.12449999898672	-0.015113461968126
0.12600000202656	-0.015119560956148
0.12749999761581	-0.015156166725683
0.12899999320507	-0.015226645696394
0.13050000369549	-0.015328965878152
0.13199999928474	-0.015464814255646
0.13349999487400	-0.015633253975428
0.13500000536442	-0.015833511585883
0.13650000095367	-0.016066319094488
0.13799999654293	-0.016330936201629
0.13950000703335	-0.016626563211780
0.14100000262260	-0.016954470994915
0.14249999821186	-0.017311673357087
0.14399999380112	-0.017700936103350
0.14550000429153	-0.018119475730443
0.14699999988079	-0.018568366854777
0.14849999547005	-0.019044600283633
0.15000000596046	-0.019549203208979
0.15150000154972	-0.020082476557397
0.15299999713898	-0.020642257841032
0.15449999272823	-0.021228145262116
0.15600000321865	-0.021840701572336
0.15749999880791	-0.022476186936535
0.15899999439716	-0.023136602531397
0.16050000488758	-0.023819831242818
0.16200000047684	-0.024524607649507
0.16349999606609	-0.025251226775513
0.16500000655651	-0.025998052735004
0.16650000214577	-0.026764450965949
0.16799999773502	-0.027549865399267
0.16949999332428	-0.028351060285118
0.17100000381470	-0.029168079009915
0.17249999940395	-0.030001557129151
0.17399999499321	-0.030848074976394
0.17550000548363	-0.031707499249174
0.17700000107288	-0.032578648629474
0.17849999666214	-0.033461288686908
0.18000000715256	-0.034350664328447
0.18150000274181	-0.035250319132828
0.18299999833107	-0.036155984585147
0.18449999392033	-0.037067310946048
0.18600000441074	-0.037982450840497
0.18750000000000	-0.038900622788246
0.18899999558926	-0.039821990632488
0.19050000607967	-0.040742334886690
0.19200000166893	-0.041662337686550
0.19349999725819	-0.042580303714375
0.19499999284744	-0.043495258377321
0.19650000333786	-0.044405133053234
0.19799999892712	-0.045310348487357
0.19949999451637	-0.046207078969428
0.20100000500679	-0.047095590925462
0.20250000059605	-0.047973345143416
0.20399999618530	-0.048841178392375
0.20550000667572	-0.049696985768587
0.20700000226498	-0.050539013483882
0.20849999785423	-0.051366420841020
0.20999999344349	-0.052178238830856
0.21150000393391	-0.052972545966732
0.21299999952316	-0.053748925940520
0.21449999511242	-0.054506370572825
0.21600000560284	-0.055243253385441
0.21750000119209	-0.055958626903234
0.21899999678135	-0.056650391132748
0.22050000727177	-0.057319064740512
0.22200000286102	-0.057963765475696
0.22349999845028	-0.058581845270371
0.22499999403954	-0.059174004291843
0.22650000452995	-0.059739173535576
0.22800000011921	-0.060274772339758
0.22949999570847	-0.060780598916819
0.23100000619888	-0.061258552198988
0.23250000178814	-0.061705081800846
0.23399999737740	-0.062119582257235
0.23549999296665	-0.062503802798238
0.23700000345707	-0.062852598210100
0.23849999904633	-0.063168935026073
0.23999999463558	-0.063452506000969
0.24150000512600	-0.063701015020993
0.24300000071526	-0.063915176130296
0.24449999630451	-0.064092737536404
0.24600000679493	-0.064235691614642
0.24750000238419	-0.064342178588916
0.24899999797344	-0.064414724847941
0.25049999356270	-0.064448329209159
0.25200000405312	-0.064446612486922
0.25350001454353	-0.064408477478970
0.25499999523163	-0.064333086716105
0.25650000572205	-0.064221611168633
0.25799998641014	-0.064073311722742
0.25949999690056	-0.063888992565203
0.26100000739098	-0.063668279005092
0.26249998807907	-0.063410917836446
0.26399999856949	-0.063117469734831
0.26550000905991	-0.062789628023373
0.26699998974800	-0.062425465881691
0.26850000023842	-0.062027607825429
0.27000001072884	-0.061594745251461
0.27149999141693	-0.061128623323186
0.27300000190735	-0.060628601522980
0.27450001239777	-0.060097029612658
0.27599999308586	-0.059532543076103
0.27750000357628	-0.058936810051536
0.27900001406670	-0.058311122350199
0.28049999475479	-0.057654663019622
0.28200000524521	-0.056970023996693
0.28349998593330	-0.056257770480331
0.28499999642372	-0.055517849642393
0.28650000691414	-0.054752213866098
0.28799998760223	-0.053961970173667
0.28949999809265	-0.053147058534288
0.29100000858307	-0.052309267649723
0.29249998927116	-0.051450115419499
0.29399999976158	-0.050569703389266
0.29550001025200	-0.049670296523023
0.29699999094009	-0.048753225954497
0.29850000143051	-0.047817643743365
0.30000001192093	-0.046866114369830
0.30149999260902	-0.045902351198764
0.30300000309944	-0.044923907167194
0.30450001358986	-0.043933257809575
0.30599999427795	-0.042933489881602
0.30750000476837	-0.041924152500887
0.30899998545647	-0.040907275123577
0.31049999594688	-0.039884039152820
0.31200000643730	-0.038856860496263
0.31349998712540	-0.037825083857909
0.31499999761581	-0.036791264390692
0.31650000810623	-0.035758142290919
0.31799998879433	-0.034726492155076
0.31949999928474	-0.033696888354409
0.32100000977516	-0.032670493777848
0.32249999046326	-0.031650317028685
0.32400000095367	-0.030637279501193
0.32550001144409	-0.029633082065385
0.32699999213219	-0.028637141482379
0.32850000262260	-0.027655275252335
0.33000001311302	-0.026683777539812
0.33149999380112	-0.025728991963676
0.33300000429153	-0.024788218433807
0.33450001478195	-0.023864418531936
0.33599999547005	-0.022959659349270
0.33750000596046	-0.022075489067028
0.33899998664856	-0.021212440601276
0.34049999713898	-0.020370958050572
0.34200000762939	-0.019554828545885
0.34349998831749	-0.018762602381705
0.34499999880791	-0.017998040652744
0.34650000929832	-0.017259330391351
0.34799998998642	-0.016550734280092
0.34950000047684	-0.015872206723094
0.35100001096725	-0.015224591604883
0.35249999165535	-0.014608934333830
0.35400000214577	-0.014026731983936
0.35550001263618	-0.013478453789841
0.35699999332428	-0.012965205010175
0.35850000381470	-0.012489211244314
0.36000001430511	-0.012050087689446
0.36149999499321	-0.011648128633888
0.36300000548363	-0.011284441009529
0.36449998617172	-0.010960078941143
0.36599999666214	-0.010677596290953
0.36750000715256	-0.010434608443126
0.36899998784065	-0.010233053531987
0.37049999833107	-0.010073597982659
0.37200000882149	-0.0099564339437124
0.37349998950958	-0.0098808052649344
0.37500000000000	-0.0098496008420443
0.37650001049042	-0.0098621758671438
0.37799999117851	-0.0099186179125060
0.37950000166893	-0.010018293491780
0.38100001215935	-0.010161953354689
0.38249999284744	-0.010350230543389
0.38400000333786	-0.010582364864845
0.38550001382828	-0.010859366316090
0.38699999451637	-0.011181114322353
0.38850000500679	-0.011545890744520
0.38999998569489	-0.011956173516735
0.39149999618530	-0.012408075640432
0.39300000667572	-0.012904479335933
0.39449998736382	-0.013443303313716
0.39599999785423	-0.014024705524580
0.39750000834465	-0.014648662549275
0.39899998903275	-0.015313560088996
0.40049999952316	-0.016020066510717
0.40200001001358	-0.016765597726304
0.40349999070168	-0.017551260340759
0.40500000119209	-0.018376499568863
0.40650001168251	-0.019239592438609
0.40799999237061	-0.020139318038971
0.40950000286102	-0.021074878360720
0.41100001335144	-0.022046111211628
0.41249999403954	-0.023052235545145
0.41400000452995	-0.024089424474638
0.41549998521805	-0.025160760670758
0.41699999570847	-0.026261149287390
0.41850000619888	-0.027392317465160
0.41999998688698	-0.028550351541472
0.42149999737740	-0.029736083863246
0.42300000786781	-0.030948229467105
0.42449998855591	-0.032183897133243
0.42599999904633	-0.033442086010437
0.42750000953674	-0.034720742364666
0.42899999022484	-0.036019497684349
0.43050000071526	-0.037336219063851
0.43200001120567	-0.038669982112982
0.43349999189377	-0.040016728436114
0.43500000238419	-0.041378660276112
0.43650001287460	-0.042751189296485
0.43799999356270	-0.044133741430846
0.43950000405312	-0.045523852782691
0.44100001454353	-0.046920647019756
0.44249999523163	-0.048321164053607
0.44400000572205	-0.049724399386573
0.44549998641014	-0.051129427492558
0.44699999690056	-0.052532776091941
0.44850000739098	-0.053933530195463
0.44999998807907	-0.055329717326435
0.45149999856949	-0.056718319153393
0.45300000905991	-0.058098999812491
0.45449998974800	-0.059470590101502
0.45600000023842	-0.060828381867441
0.45750001072884	-0.062172446578892
0.45899999141693	-0.063501565796238
0.46050000190735	-0.064812179196944
0.46200001239777	-0.066103353284373
0.46349999308586	-0.067374469797565
0.46500000357628	-0.068620330733689
0.46650001406670	-0.069842092598043
0.46799999475479	-0.071037295859428
0.46950000524521	-0.072204237842365
0.47099998593330	-0.073340367159577
0.47249999642372	-0.074445444975495
0.47400000691414	-0.075517244303267
0.47549998760223	-0.076553539993335
0.47699999809265	-0.077551723667951
0.47850000858307	-0.078514410512325
0.47999998927116	-0.079435340500608
0.48149999976158	-0.080315389171057
0.48300001025200	-0.081153806965885
0.48449999094009	-0.081947560117967
0.48600000143051	-0.082696703444433
0.48750001192093	-0.083397614239248
0.48899999260902	-0.084053182586511
0.49050000309944	-0.084658069307955
0.49200001358986	-0.085214438359765
0.49349999427795	-0.085719176414998
0.49500000476837	-0.086172724981085
0.49649998545647	-0.086572329302571
0.49799999594688	-0.086919030938787
0.49950000643730	-0.087211375124641
0.50099998712540	-0.087449232687917
0.50249999761581	-0.087630272751942
0.50400000810623	-0.087755728030031
0.50550001859665	-0.087825476003658
0.50700002908707	-0.087837616997670
0.50849997997284	-0.087792165466650
0.50999999046326	-0.087689075285668
0.51150000095367	-0.087528107114024
0.51300001144409	-0.087310101294789
0.51450002193451	-0.087033540556704
0.51599997282028	-0.086699465268870
0.51749998331070	-0.086307696365845
0.51899999380112	-0.085859139042008
0.52050000429153	-0.085352532385617
0.52200001478195	-0.084790191874952
0.52350002527237	-0.084171698051623
0.52499997615814	-0.083496832967602
0.52649998664856	-0.082768183045649
0.52799999713898	-0.081985533684285
0.52950000762939	-0.081149218528174
0.53100001811981	-0.080259802615052
0.53250002861023	-0.079319696384622
0.53399997949600	-0.078328342502419
0.53549998998642	-0.077288511935468
0.53700000047684	-0.076200149351662
0.53850001096725	-0.075065276326036
0.54000002145767	-0.073885615701141
0.54149997234344	-0.072660242498534
0.54299998283386	-0.071394651237514
0.54449999332428	-0.070086355062724
0.54600000381470	-0.068738943771408
0.54750001430511	-0.067354251968921
0.54900002479553	-0.065933884911241
0.55049997568130	-0.064479360658049
0.55199998617172	-0.062992760408698
0.55349999666214	-0.061475935588081
0.55500000715256	-0.059931563220074
0.55650001764297	-0.058361343551068
0.55800002813339	-0.056765911972273
0.55949997901917	-0.055150321712932
0.56099998950958	-0.053514389652791
0.56250000000000	-0.051860858619328
0.56400001049042	-0.050193394952266
0.56550002098083	-0.048512849853186
0.56699997186661	-0.046822159339720
0.56849998235703	-0.045122787736315
0.56999999284744	-0.043420377046604
0.57150000333786	-0.041713672415707
0.57300001382828	-0.040006675660584
0.57450002431870	-0.038302260650306
0.57599997520447	-0.036602936055075
0.57749998569489	-0.034910412306992
0.57899999618530	-0.033229004196095
0.58050000667572	-0.031558691302006
0.58200001716614	-0.029904667328966
0.58350002765656	-0.028269508502289
0.58499997854233	-0.026652679367209
0.58649998903275	-0.025060779587479
0.58799999952316	-0.023492974062254
0.58950001001358	-0.021955138275820
0.59100002050400	-0.020448111718378
0.59249997138977	-0.018974375371997
0.59399998188019	-0.017537202192752
0.59549999237061	-0.016137623513447
0.59700000286102	-0.014781951245734
0.59850001335144	-0.013467866406186
0.60000002384186	-0.012201440517873
0.60149997472763	-0.010983836059011
0.60299998521805	-0.0098181565974761
0.60449999570847	-0.0087049644563154
0.60600000619888	-0.0076484695539001
0.60750001668930	-0.0066509570083663
0.60900002717972	-0.0057144571811645
0.61049997806549	-0.0048415185248492
0.61199998855591	-0.0040333095334706
0.61349999904633	-0.0032920096429149
0.61500000953674	-0.0026220272005672
0.61650002002716	-0.0020222453254753
0.61799997091293	-0.0014964089194236
0.61949998140335	-0.0010476466201092
0.62099999189377	-0.00067561539131021
0.62250000238419	-0.00038275568901181
0.62400001287460	-0.00017278205871552
0.62550002336502	-4.3678567645851e-05
0.62699997425079	5.4249092595195e-07
0.62849998474121	-4.2870201152295e-05
0.62999999523163	-0.00017078861577680
0.63150000572205	-0.00039055069433882
0.63300001621246	-0.00069995987892722
0.63450002670288	-0.0010999938778486
0.63599997758865	-0.0015932032189622
0.63749998807907	-0.0021819499343374
0.63899999856949	-0.0028627318723317
0.64050000905991	-0.0036409875416723
0.64200001955032	-0.0045160856025027
0.64349997043610	-0.0054867660135869
0.64499998092651	-0.0065591115151766
0.64649999141693	-0.0077277330101423
0.64800000190735	-0.0089956573584102
0.64950001239777	-0.010362024819973
0.65100002288818	-0.011831108034239
0.65249997377396	-0.013397770212442
0.65399998426437	-0.015064356848761
0.65549999475479	-0.016831319061307
0.65700000524521	-0.018700863346138
0.65850001573563	-0.020668185484455
0.66000002622604	-0.022735837140334
0.66149997711182	-0.024901300458006
0.66299998760223	-0.027167832630102
0.66449999809265	-0.029531471005848
0.66600000858307	-0.031992556247519
0.66750001907349	-0.034549674391780
0.66900002956390	-0.037203933465201
0.67049998044968	-0.039952579775994
0.67199999094009	-0.042795385830787
0.67350000143051	-0.045730379905765
0.67500001192093	-0.048757146964057
0.67650002241135	-0.051874485146925
0.67799997329712	-0.055080539361090
0.67949998378754	-0.058373712515454
0.68099999427795	-0.061753699083585
0.68250000476837	-0.065215807758616
0.68400001525879	-0.068761044153975
0.68550002574921	-0.072385770729821
0.68699997663498	-0.076088223220318
0.68849998712540	-0.079865977750625
0.68999999761581	-0.083719389900237
0.69150000810623	-0.087643094623551
0.69300001859665	-0.091637788725709
0.69450002908707	-0.095697640484311
0.69599997997284	-0.099823658816293
0.69749999046326	-0.10400870615894
0.69900000095367	-0.10825430642878
0.70050001144409	-0.11255653849113
0.70200002193451	-0.11691090365672
0.70349997282028	-0.12131690246380
0.70499998331070	-0.12577084859496
0.70649999380112	-0.13026762298201
0.70800000429153	-0.13480745860429
0.70950001478195	-0.13938489769722
0.71100002527237	-0.14399649282205
0.71249997615814	-0.14864218595802
0.71399998664856	-0.15331422278063
0.71549999713898	-0.15801299861407
0.71700000762939	-0.16273289233835
0.71850001811981	-0.16747114589664
0.72000002861023	-0.17222294031501
0.72149997949600	-0.17698699513738
0.72299998998642	-0.18175918424242
0.72450000047684	-0.18653425503016
0.72600001096725	-0.19131179836737
0.72750002145767	-0.19608333829618
0.72899997234344	-0.20084969122837
0.73049998283386	-0.20560483483467
0.73199999332428	-0.21034630613738
0.73350000381470	-0.21506951112321
0.73500001430511	-0.21977099869023
0.73650002479553	-0.22444693138935
0.73799997568130	-0.22909487351039
0.73949998617172	-0.23370998767852
0.74099999666214	-0.23828696829929
0.74250000715256	-0.24282479110441
0.74400001764297	-0.24731982435480
0.74550002813339	-0.25176830568117
0.74699997901917	-0.25616323570183
0.74849998950958	-0.26050531307423
0.75000000000000	-0.26479113897343
0.75150001049042	-0.26901409260583
0.75300002098083	-0.27317228274902
0.75449997186661	-0.27726351952949
0.75599998235703	-0.28128327092553
0.75749999284744	-0.28522865693723
0.75900000333786	-0.28909668541215
0.76050001382828	-0.29288488773621
0.76200002431870	-0.29658676251952
0.76349997520447	-0.30020490448348
0.76499998569489	-0.30373318842834
0.76649999618530	-0.30716882838133
0.76800000667572	-0.31051085366910
0.76950001716614	-0.31375506382173
0.77100002765656	-0.31689858740055
0.77249997854233	-0.31994034639746
0.77399998903275	-0.32287808512361
0.77549999952316	-0.32571051731906
0.77700001001358	-0.32843244550731
0.77850002050400	-0.33104607623637
0.77999997138977	-0.33354584815111
0.78149998188019	-0.33593271879623
0.78299999237061	-0.33820532531877
0.78450000286102	-0.34035909849943
0.78600001335144	-0.34239662072201
0.78750002384186	-0.34431268994880
0.78899997472763	-0.34611021204977
0.79049998521805	-0.34778676678557
0.79199999570847	-0.34934012775296
0.79350000619888	-0.35077120459026
0.79500001668930	-0.35207885303386
0.79650002717972	-0.35326491008265
0.79799997806549	-0.35432578948200
0.79949998855591	-0.35526432523553
0.80099999904633	-0.35607652649262
0.80250000953674	-0.35676826570231
0.80400002002716	-0.35733556461385
0.80549997091293	-0.35777959608428
0.80699998140335	-0.35810380295870
0.80849999189377	-0.35830550295952
0.81000000238419	-0.35838536370027
0.81150001287460	-0.35834835625939
0.81300002336502	-0.35819322235235
0.81449997425079	-0.35791982072799
0.81599998474121	-0.35753228666820
0.81749999523163	-0.35703005290123
0.81900000572205	-0.35641589596172
0.82050001621246	-0.35569074475213
0.82200002670288	-0.35485927222702
0.82349997758865	-0.35392025325957
0.82499998807907	-0.35287497011817
0.82649999856949	-0.35173002175808
